 #Meta stability limit
 #Tl (K)	Pl (bar)	vl (m3/mol)	Tg (K)	Pg (bar)	vg (m3/mol)
  1.8471204594E+002 -6.0817917795E+002  4.1578817424E-005  6.4017142845E+001  9.7044423480E-001  2.7151263584E-003
  1.8591899497E+002 -5.9640013819E+002  4.1729389715E-005  6.6443232312E+001  1.0566670720E+000  2.5867743802E-003
  1.8712594400E+002 -5.8474453066E+002  4.1881649036E-005  6.8869321778E+001  1.1473814301E+000  2.4679777885E-003
  1.8833289303E+002 -5.7321123919E+002  4.2035630186E-005  7.1295411244E+001  1.2426900201E+000  2.3577345362E-003
  1.8953984206E+002 -5.6179916713E+002  4.2191368967E-005  7.3721500710E+001  1.3426974272E+000  2.2551765479E-003
  1.9074679109E+002 -5.5050723701E+002  4.2348902214E-005  7.6147590176E+001  1.4475101944E+000  2.1595482206E-003
  1.9195374012E+002 -5.3933439014E+002  4.2508267848E-005  7.8573679643E+001  1.5572369085E+000  2.0701888604E-003
  1.9316068915E+002 -5.2827958623E+002  4.2669504911E-005  8.0999769109E+001  1.6719882872E+000  1.9865183037E-003
  1.9436763819E+002 -5.1734180310E+002  4.2832653615E-005  8.3425858575E+001  1.7918772689E+000  1.9080250676E-003
  1.9557458722E+002 -5.0652003629E+002  4.2997755392E-005  8.5851948041E+001  1.9170191037E+000  1.8342565273E-003
  1.9678153625E+002 -4.9581329877E+002  4.3164852941E-005  8.8278037507E+001  2.0475314479E+000  1.7648107284E-003
  1.9798848528E+002 -4.8522062061E+002  4.3333990287E-005  9.0704126974E+001  2.1835344606E+000  1.6993295239E-003
  1.9919543431E+002 -4.7474104870E+002  4.3505212830E-005  9.3130216440E+001  2.3251509039E+000  1.6374927950E-003
  2.0040238334E+002 -4.6437364644E+002  4.3678567411E-005  9.5556305906E+001  2.4725062461E+000  1.5790135602E-003
  2.0160933237E+002 -4.5411749345E+002  4.3854102371E-005  9.7982395372E+001  2.6257287691E+000  1.5236338176E-003
  2.0281628140E+002 -4.4397168535E+002  4.4031867618E-005  1.0040848484E+002  2.7849496785E+000  1.4711209964E-003
  2.0402323043E+002 -4.3393533345E+002  4.4211914698E-005  1.0283457430E+002  2.9503032198E+000  1.4212649153E-003
  2.0523017946E+002 -4.2400756453E+002  4.4394296864E-005  1.0526066377E+002  3.1219267973E+000  1.3738751662E-003
  2.0643712849E+002 -4.1418752059E+002  4.4579069159E-005  1.0768675324E+002  3.2999610994E+000  1.3287788545E-003
  2.0764407753E+002 -4.0447435861E+002  4.4766288496E-005  1.1011284270E+002  3.4845502279E+000  1.2858186422E-003
  2.0885102656E+002 -3.9486725038E+002  4.4956013744E-005  1.1253893217E+002  3.6758418338E+000  1.2448510454E-003
  2.1005797559E+002 -3.8536538223E+002  4.5148305823E-005  1.1496502164E+002  3.8739872588E+000  1.2057449513E-003
  2.1126492462E+002 -3.7596795486E+002  4.5343227797E-005  1.1739111110E+002  4.0791416829E+000  1.1683803195E-003
  2.1247187365E+002 -3.6667418315E+002  4.5540844983E-005  1.1981720057E+002  4.2914642793E+000  1.1326470442E-003
  2.1367882268E+002 -3.5748329598E+002  4.5741225058E-005  1.2224329003E+002  4.5111183762E+000  1.0984439523E-003
  2.1488577171E+002 -3.4839453604E+002  4.5944438176E-005  1.2466937950E+002  4.7382716267E+000  1.0656779203E-003
  2.1609272074E+002 -3.3940715970E+002  4.6150557091E-005  1.2709546897E+002  4.9730961869E+000  1.0342630933E-003
  2.1729966977E+002 -3.3052043682E+002  4.6359657293E-005  1.2952155843E+002  5.2157689025E+000  1.0041201933E-003
  2.1850661880E+002 -3.2173365064E+002  4.6571817144E-005  1.3194764790E+002  5.4664715058E+000  9.7517590359E-004
  2.1971356784E+002 -3.1304609763E+002  4.6787118029E-005  1.3437373737E+002  5.7253908218E+000  9.4736232177E-004
  2.2092051687E+002 -3.0445708737E+002  4.7005644518E-005  1.3679982683E+002  5.9927189862E+000  9.2061647085E-004
  2.2212746590E+002 -2.9596594244E+002  4.7227484535E-005  1.3922591630E+002  6.2686536739E+000  8.9487986239E-004
  2.2333441493E+002 -2.8757199829E+002  4.7452729540E-005  1.4165200576E+002  6.5533983410E+000  8.7009810503E-004
  2.2454136396E+002 -2.7927460321E+002  4.7681474724E-005  1.4407809523E+002  6.8471624798E+000  8.4622055290E-004
  2.2574831299E+002 -2.7107311816E+002  4.7913819217E-005  1.4650418470E+002  7.1501618874E+000  8.2319998952E-004
  2.2695526202E+002 -2.6296691677E+002  4.8149866314E-005  1.4893027416E+002  7.4626189511E+000  8.0099234282E-004
  2.2816221105E+002 -2.5495538526E+002  4.8389723711E-005  1.5135636363E+002  7.7847629490E+000  7.7955642797E-004
  2.2936916008E+002 -2.4703792234E+002  4.8633503767E-005  1.5378245310E+002  8.1168303692E+000  7.5885371472E-004
  2.3057610911E+002 -2.3921393926E+002  4.8881323776E-005  1.5620854256E+002  8.4590652476E+000  7.3884811677E-004
  2.3178305814E+002 -2.3148285972E+002  4.9133306269E-005  1.5863463203E+002  8.8117195269E+000  7.1950580056E-004
  2.3299000718E+002 -2.2384411986E+002  4.9389579331E-005  1.6106072149E+002  9.1750534372E+000  7.0079501154E-004
  2.3419695621E+002 -2.1629716828E+002  4.9650276952E-005  1.6348681096E+002  9.5493359014E+000  6.8268591613E-004
  2.3540390524E+002 -2.0884146607E+002  4.9915539397E-005  1.6591290043E+002  9.9348449655E+000  6.6515045752E-004
  2.3661085427E+002 -2.0147648677E+002  5.0185513610E-005  1.6833898989E+002  1.0331868259E+001  6.4816222414E-004
  2.3781780330E+002 -1.9420171652E+002  5.0460353657E-005  1.7076507936E+002  1.0740703481E+001  6.3169632938E-004
  2.3902475233E+002 -1.8701665399E+002  5.0740221195E-005  1.7319116882E+002  1.1161658929E+001  6.1572930144E-004
  2.4023170136E+002 -1.7992081059E+002  5.1025285990E-005  1.7561725829E+002  1.1595054052E+001  6.0023898240E-004
  2.4143865039E+002 -1.7291371045E+002  5.1315726478E-005  1.7804334776E+002  1.2041220050E+001  5.8520443544E-004
  2.4264559942E+002 -1.6599489062E+002  5.1611730377E-005  1.8046943722E+002  1.2500500516E+001  5.7060585969E-004
  2.4385254845E+002 -1.5916390117E+002  5.1913495349E-005  1.8289552669E+002  1.2973252122E+001  5.5642451163E-004
  2.4505949748E+002 -1.5242030535E+002  5.2221229732E-005  1.8532161616E+002  1.3459845354E+001  5.4264263277E-004
  2.4626644652E+002 -1.4576367975E+002  5.2535153338E-005  1.8774770562E+002  1.3960665314E+001  5.2924338276E-004
  2.4747339555E+002 -1.3919361458E+002  5.2855498320E-005  1.9017379509E+002  1.4476112565E+001  5.1621077755E-004
  2.4868034458E+002 -1.3270971384E+002  5.3182510139E-005  1.9259988455E+002  1.5006604062E+001  5.0352963209E-004
  2.4988729361E+002 -1.2631159561E+002  5.3516448618E-005  1.9502597402E+002  1.5552574144E+001  4.9118550718E-004
  2.5109424264E+002 -1.1999889236E+002  5.3857589105E-005  1.9745206349E+002  1.6114475612E+001  4.7916465997E-004
  2.5230119167E+002 -1.1377125129E+002  5.4206223764E-005  1.9987815295E+002  1.6692780899E+001  4.6745399798E-004
  2.5350814070E+002 -1.0762833471E+002  5.4562663000E-005  2.0230424242E+002  1.7287983341E+001  4.5604103603E-004
  2.5471508973E+002 -1.0156982045E+002  5.4927237042E-005  2.0473033189E+002  1.7900598552E+001  4.4491385605E-004
  2.5592203876E+002 -9.5595402351E+001  5.5300297703E-005  2.0715642135E+002  1.8531165933E+001  4.3406106933E-004
  2.5712898779E+002 -8.9704790797E+001  5.5682220352E-005  2.0958251082E+002  1.9180250310E+001  4.2347178099E-004
  2.5833593682E+002 -8.3897713288E+001  5.6073406106E-005  2.1200860028E+002  1.9848443735E+001  4.1313555650E-004
  2.5954288586E+002 -7.8173915110E+001  5.6474284299E-005  2.1443468975E+002  2.0536367449E+001  4.0304238987E-004
  2.6074983489E+002 -7.2533160062E+001  5.6885315254E-005  2.1686077922E+002  2.1244674056E+001  3.9318267345E-004
  2.6195678392E+002 -6.6975231278E+001  5.7306993419E-005  2.1928686868E+002  2.1974049900E+001  3.8354716902E-004
  2.6316373295E+002 -6.1499932135E+001  5.7739850904E-005  2.2171295815E+002  2.2725217703E+001  3.7412697998E-004
  2.6437068198E+002 -5.6107087278E+001  5.8184461506E-005  2.2413904762E+002  2.3498939479E+001  3.6491352447E-004
  2.6557763101E+002 -5.0796543761E+001  5.8641445302E-005  2.2656513708E+002  2.4296019777E+001  3.5589850906E-004
  2.6678458004E+002 -4.5568172331E+001  5.9111473895E-005  2.2899122655E+002  2.5117309282E+001  3.4707390295E-004
  2.6799152907E+002 -4.0421868867E+001  5.9595276446E-005  2.3141731601E+002  2.5963708849E+001  3.3843191228E-004
  2.6919847810E+002 -3.5357556011E+001  6.0093646636E-005  2.3384340548E+002  2.6836174023E+001  3.2996495432E-004
  2.7040542713E+002 -3.0375185000E+001  6.0607450734E-005  2.3626949495E+002  2.7735720116E+001  3.2166563124E-004
  2.7161237616E+002 -2.5474737752E+001  6.1137636992E-005  2.3869558441E+002  2.8663427951E+001  3.1352670298E-004
  2.7281932520E+002 -2.0656229231E+001  6.1685246655E-005  2.4112167388E+002  2.9620450373E+001  3.0554105895E-004
  2.7402627423E+002 -1.5919710158E+001  6.2251426917E-005  2.4354776334E+002  3.0608019659E+001  2.9770168782E-004
  2.7523322326E+002 -1.1265270105E+001  6.2837446275E-005  2.4597385281E+002  3.1627456002E+001  2.9000164491E-004
  2.7644017229E+002 -6.6930410731E+000  6.3444712830E-005  2.4839994228E+002  3.2680177270E+001  2.8243401627E-004
  2.7764712132E+002 -2.2032016200E+000  6.4074796270E-005  2.5082603174E+002  3.3767710282E+001  2.7499187848E-004
  2.7885407035E+002  2.2040183245E+000  6.4729454466E-005  2.5325212121E+002  3.4891703937E+001  2.6766825274E-004
  2.8006101938E+002  6.5283318273E+000  6.5410665905E-005  2.5567821068E+002  3.6053944574E+001  2.6045605162E-004
  2.8126796841E+002  1.0769388311E+001  6.6120669637E-005  2.5810430014E+002  3.7256374082E+001  2.5334801617E-004
  2.8247491744E+002  1.4926765668E+001  6.6862014924E-005  2.6053038961E+002  3.8501111427E+001  2.4633664014E-004
  2.8368186647E+002  1.8999960821E+001  6.7637623650E-005  2.6295647907E+002  3.9790478431E+001  2.3941407741E-004
  2.8488881551E+002  2.2988378311E+001  6.8450869717E-005  2.6538256854E+002  4.1127030960E+001  2.3257202640E-004
  2.8609576454E+002  2.6891316377E+001  6.9305681424E-005  2.6780865801E+002  4.2513597045E+001  2.2580158347E-004
  2.8730271357E+002  3.0707949757E+001  7.0206675470E-005  2.7023474747E+002  4.3953324012E+001  2.1909305320E-004
  2.8850966260E+002  3.4437308178E+001  7.1159335386E-005  2.7266083694E+002  4.5449737545E+001  2.1243569778E-004
  2.8971661163E+002  3.8078249043E+001  7.2170253734E-005  2.7508692641E+002  4.7006816800E+001  2.0581739887E-004
  2.9092356066E+002  4.1629422162E+001  7.3247468261E-005  2.7751301587E+002  4.8629091611E+001  1.9922418986E-004
  2.9213050969E+002  4.5089223285E+001  7.4400940628E-005  2.7993910534E+002  5.0321770785E+001  1.9263959099E-004
  2.9333745872E+002  4.8455731459E+001  7.5643259109E-005  2.8236519480E+002  5.2090915468E+001  1.8604363436E-004
  2.9454440775E+002  5.1726622191E+001  7.6990707936E-005  2.8479128427E+002  5.3943679986E+001  1.7941137928E-004
  2.9575135678E+002  5.4899042972E+001  7.8464967432E-005  2.8721737374E+002  5.5888657914E+001  1.7271055043E-004
  2.9695830581E+002  5.7969427263E+001  8.0095968031E-005  2.8964346320E+002  5.7936400502E+001  1.6589756657E-004
  2.9816525485E+002  6.0933201390E+001  8.1927026117E-005  2.9206955267E+002  6.0100235641E+001  1.5891038150E-004
  2.9937220388E+002  6.3784289217E+001  8.4024979604E-005  2.9449564214E+002  6.2397655494E+001  1.5165432553E-004
  3.0057915291E+002  6.6514189507E+001  8.6502960546E-005  2.9692173160E+002  6.4852908298E+001  1.4397022063E-004
  3.0178610194E+002  6.9109985977E+001  8.9582816347E-005  2.9934782107E+002  6.7502604306E+001  1.3554675940E-004
  3.0299305097E+002  7.1548805425E+001  9.3840773303E-005  3.0177391053E+002  7.0411376102E+001  1.2557468746E-004
  3.0420000000E+002  7.3765000000E+001  1.0539924874E-004  3.0420000000E+002  7.3765000000E+001  1.0540019252E-004
